Frequency (Hz)	Level (dB)
10.766602	-36.942551
21.533203	-31.156113
32.299805	-28.940626
43.066406	-29.447008
53.833008	-31.142866
64.599609	-33.150204
75.366211	-35.141087
86.132812	-37.822948
96.899414	-40.393921
107.666016	-42.525303
118.432617	-44.255169
129.199219	-45.261372
139.965820	-45.625286
150.732422	-46.184673
161.499023	-46.822208
172.265625	-47.429340
183.032227	-48.421864
193.798828	-50.049629
204.565430	-52.005531
215.332031	-53.878414
226.098633	-56.133553
236.865234	-57.919865
247.631836	-57.494526
258.398438	-56.988846
269.165039	-56.329414
279.931641	-56.098694
290.698242	-56.225109
301.464844	-56.419559
312.231445	-57.032410
322.998047	-57.839382
333.764648	-59.118099
344.531250	-60.618683
355.297852	-62.443867
366.064453	-64.374138
376.831055	-64.915962
387.597656	-64.353409
398.364258	-62.845745
409.130859	-61.445366
419.897461	-60.638924
430.664062	-60.299244
441.430664	-60.400406
452.197266	-60.845600
462.963867	-61.837841
473.730469	-63.303200
484.497070	-64.751656
495.263672	-65.480400
506.030273	-64.965668
516.796875	-63.560772
527.563477	-62.287342
538.330078	-61.449993
549.096680	-61.035927
559.863281	-60.884098
570.629883	-61.008499
581.396484	-61.383503
592.163086	-61.680012
602.929688	-61.815708
613.696289	-61.806610
624.462891	-61.530758
635.229492	-61.313725
645.996094	-60.918865
656.762695	-59.992462
667.529297	-59.323681
678.295898	-59.203575
689.062500	-59.021030
699.829102	-58.867161
710.595703	-58.486492
721.362305	-57.780239
732.128906	-57.340321
742.895508	-56.615402
753.662109	-55.665981
764.428711	-54.510571
775.195312	-53.299824
785.961914	-51.514034
796.728516	-49.862091
807.495117	-48.886154
818.261719	-48.707062
829.028320	-48.764580
839.794922	-49.471031
850.561523	-51.082161
861.328125	-52.693718
872.094727	-54.121788
882.861328	-55.875908
893.627930	-57.734070
904.394531	-58.835670
915.161133	-59.260284
925.927734	-59.732582
936.694336	-60.308510
947.460938	-61.094673
958.227539	-61.900005
968.994141	-62.594353
979.760742	-63.281796
990.527344	-63.633415
1001.293945	-64.168633
1012.060547	-64.641403
1022.827148	-64.825333
1033.593750	-65.117302
1044.360352	-65.150124
1055.126953	-65.772011
1065.893555	-66.712204
1076.660156	-67.481705
1087.426758	-67.815071
1098.193359	-67.277275
1108.959961	-66.208359
1119.726562	-65.423355
1130.493164	-65.817062
1141.259766	-66.388298
1152.026367	-66.537102
1162.792969	-66.894890
1173.559570	-67.231842
1184.326172	-67.429230
1195.092773	-67.657631
1205.859375	-67.888992
1216.625977	-67.963554
1227.392578	-67.895248
1238.159180	-67.956596
1248.925781	-67.767418
1259.692383	-67.495987
1270.458984	-67.546059
1281.225586	-67.721146
1291.992188	-67.706924
1302.758789	-67.597885
1313.525391	-67.316025
1324.291992	-65.578835
1335.058594	-64.424232
1345.825195	-65.913803
1356.591797	-66.892426
1367.358398	-67.315086
1378.125000	-66.862274
1388.891602	-66.331848
1399.658203	-66.248680
1410.424805	-65.949142
1421.191406	-65.528221
1431.958008	-65.277573
1442.724609	-65.015121
1453.491211	-64.797928
1464.257812	-64.295692
1475.024414	-64.103027
1485.791016	-63.452244
1496.557617	-63.012993
1507.324219	-62.273888
1518.090820	-62.061504
1528.857422	-62.241806
1539.624023	-62.552082
1550.390625	-62.976871
1561.157227	-59.756367
1571.923828	-55.808758
1582.690430	-53.875759
1593.457031	-52.928959
1604.223633	-52.541515
1614.990234	-52.261543
1625.756836	-51.696804
1636.523438	-50.938858
1647.290039	-50.316139
1658.056641	-49.956650
1668.823242	-50.202667
1679.589844	-50.778027
1690.356445	-51.803017
1701.123047	-52.702503
1711.889648	-53.364254
1722.656250	-54.344799
1733.422852	-55.341969
1744.189453	-55.941879
1754.956055	-55.788467
1765.722656	-55.322830
1776.489258	-54.156464
1787.255859	-54.369053
1798.022461	-56.493500
1808.789062	-58.451801
1819.555664	-59.267689
1830.322266	-60.043629
1841.088867	-61.240162
1851.855469	-62.886395
1862.622070	-64.693695
1873.388672	-65.269043
1884.155273	-64.348274
1894.921875	-63.950642
1905.688477	-63.848991
1916.455078	-63.783787
1927.221680	-63.799984
1937.988281	-63.803455
1948.754883	-63.771873
1959.521484	-63.884644
1970.288086	-64.084641
1981.054688	-63.854958
1991.821289	-63.880161
2002.587891	-66.247589
2013.354492	-71.967995
2024.121094	-72.533936
2034.887695	-70.028748
2045.654297	-68.995056
2056.420898	-68.530884
2067.187500	-68.294258
2077.954102	-68.070900
2088.720703	-67.639870
2099.487305	-67.157166
2110.253906	-66.065849
2121.020508	-64.444183
2131.787109	-63.456486
2142.553711	-63.411278
2153.320312	-63.840984
2164.086914	-64.309929
2174.853516	-64.535164
2185.620117	-64.991486
2196.386719	-64.501480
2207.153320	-62.494678
2217.919922	-58.419788
2228.686523	-55.562088
2239.453125	-55.240917
2250.219727	-55.864521
2260.986328	-56.782169
2271.752930	-57.137650
2282.519531	-57.139484
2293.286133	-56.932159
2304.052734	-56.707615
2314.819336	-56.374008
2325.585938	-55.861004
2336.352539	-55.092659
2347.119141	-54.279221
2357.885742	-53.121349
2368.652344	-51.799934
2379.418945	-50.349518
2390.185547	-49.945801
2400.952148	-50.935726
2411.718750	-51.192520
2422.485352	-50.204124
2433.251953	-48.275860
2444.018555	-47.117016
2454.785156	-47.676334
2465.551758	-50.664494
2476.318359	-53.448219
2487.084961	-54.261467
2497.851562	-54.359497
2508.618164	-54.065994
2519.384766	-54.067459
2530.151367	-54.353397
2540.917969	-55.148693
2551.684570	-56.146835
2562.451172	-57.145218
2573.217773	-58.037609
2583.984375	-59.263966
2594.750977	-60.916508
2605.517578	-62.782532
2616.284180	-65.036362
2627.050781	-68.312126
2637.817383	-72.162079
2648.583984	-70.844589
2659.350586	-61.153454
2670.117188	-54.753571
2680.883789	-52.213139
2691.650391	-52.481167
2702.416992	-53.544941
2713.183594	-54.478306
2723.950195	-55.081211
2734.716797	-55.450157
2745.483398	-56.159714
2756.250000	-56.502579
2767.016602	-56.643326
2777.783203	-56.452389
2788.549805	-56.853283
2799.316406	-57.097225
2810.083008	-57.033321
2820.849609	-56.759708
2831.616211	-56.194031
2842.382812	-55.371857
2853.149414	-54.578182
2863.916016	-53.459633
2874.682617	-51.461269
2885.449219	-49.668777
2896.215820	-48.337421
2906.982422	-48.697090
2917.749023	-49.599308
2928.515625	-51.184097
2939.282227	-53.459183
2950.048828	-55.472126
2960.815430	-57.129360
2971.582031	-57.923874
2982.348633	-58.636238
2993.115234	-58.897461
3003.881836	-59.212292
3014.648438	-59.152912
3025.415039	-59.226135
3036.181641	-59.526684
3046.948242	-59.639652
3057.714844	-59.295074
3068.481445	-59.452339
3079.248047	-59.170353
3090.014648	-58.667412
3100.781250	-57.187378
3111.547852	-55.185215
3122.314453	-53.408092
3133.081055	-52.309654
3143.847656	-52.152760
3154.614258	-52.059593
3165.380859	-51.508263
3176.147461	-51.970531
3186.914062	-53.933167
3197.680664	-58.243858
3208.447266	-64.113960
3219.213867	-61.475876
3229.980469	-57.670891
3240.747070	-54.915630
3251.513672	-52.896576
3262.280273	-51.056087
3273.046875	-49.338024
3283.813477	-47.696095
3294.580078	-45.674015
3305.346680	-44.329205
3316.113281	-42.329773
3326.879883	-40.248760
3337.646484	-39.128178
3348.413086	-39.131081
3359.179688	-40.419022
3369.946289	-42.552219
3380.712891	-44.360508
3391.479492	-46.080128
3402.246094	-47.193100
3413.012695	-47.710751
3423.779297	-47.368061
3434.545898	-45.909168
3445.312500	-44.271957
3456.079102	-43.678394
3466.845703	-44.268757
3477.612305	-44.939804
3488.378906	-45.612461
3499.145508	-46.593433
3509.912109	-47.262165
3520.678711	-47.586399
3531.445312	-47.818665
3542.211914	-48.296165
3552.978516	-49.170719
3563.745117	-50.798813
3574.511719	-53.596989
3585.278320	-57.480148
3596.044922	-59.876328
3606.811523	-59.727455
3617.578125	-59.194714
3628.344727	-58.657448
3639.111328	-58.158760
3649.877930	-57.553020
3660.644531	-56.969585
3671.411133	-56.713463
3682.177734	-55.953396
3692.944336	-55.371120
3703.710938	-55.107883
3714.477539	-54.989811
3725.244141	-55.448994
3736.010742	-56.598881
3746.777344	-58.267029
3757.543945	-59.727592
3768.310547	-59.756855
3779.077148	-58.359306
3789.843750	-57.302246
3800.610352	-57.178818
3811.376953	-57.493778
3822.143555	-57.893173
3832.910156	-58.324089
3843.676758	-58.792564
3854.443359	-58.881725
3865.209961	-58.985378
3875.976562	-59.258453
3886.743164	-59.597015
3897.509766	-59.941364
3908.276367	-60.553329
3919.042969	-61.314682
3929.809570	-62.170963
3940.576172	-63.870888
3951.342773	-63.624763
3962.109375	-58.321293
3972.875977	-52.355114
3983.642578	-47.614902
3994.409180	-44.830746
4005.175781	-43.858177
4015.942383	-44.954105
4026.708984	-47.337101
4037.475586	-50.284451
4048.242188	-53.196476
4059.008789	-54.329105
4069.775391	-54.579773
4080.541992	-54.419891
4091.308594	-53.783268
4102.075195	-53.203796
4112.841797	-52.703690
4123.608398	-52.496372
4134.375000	-51.884575
4145.141602	-52.189926
4155.908203	-53.603973
4166.674805	-55.512550
4177.441406	-58.803165
4188.208008	-60.025009
4198.974609	-52.596359
4209.741211	-46.772736
4220.507812	-43.017456
4231.274414	-40.731682
4242.041016	-39.565258
4252.807617	-39.665192
4263.574219	-40.913589
4274.340820	-43.169193
4285.107422	-45.501068
4295.874023	-47.410439
4306.640625	-49.157104
4317.407227	-50.317310
4328.173828	-51.517830
4338.940430	-51.937550
4349.707031	-52.580360
4360.473633	-53.013203
4371.240234	-53.402004
4382.006836	-53.189835
4392.773438	-53.248531
4403.540039	-53.143883
4414.306641	-52.998455
4425.073242	-52.790012
4435.839844	-52.822338
4446.606445	-53.018639
4457.373047	-54.033276
4468.139648	-55.285217
4478.906250	-56.887386
4489.672852	-58.846916
4500.439453	-61.157021
4511.206055	-64.477959
4521.972656	-69.259750
4532.739258	-68.727623
4543.505859	-65.377518
4554.272461	-63.686245
4565.039062	-63.215656
4575.805664	-62.790855
4586.572266	-62.715511
4597.338867	-62.521408
4608.105469	-62.800213
4618.872070	-63.171577
4629.638672	-63.934258
4640.405273	-64.862030
4651.171875	-66.324104
4661.938477	-68.494560
4672.705078	-69.051933
4683.471680	-67.655067
4694.238281	-65.643410
4705.004883	-64.223686
4715.771484	-63.019279
4726.538086	-62.373699
4737.304688	-61.638905
4748.071289	-61.090351
4758.837891	-60.292404
4769.604492	-59.654911
4780.371094	-59.000767
4791.137695	-58.235985
4801.904297	-57.875980
4812.670898	-57.817909
4823.437500	-57.054409
4834.204102	-56.624008
4844.970703	-56.358929
4855.737305	-55.969395
4866.503906	-55.604534
4877.270508	-54.844738
4888.037109	-54.049625
4898.803711	-53.862911
4909.570312	-53.506603
4920.336914	-52.804493
4931.103516	-52.446384
4941.870117	-52.134972
4952.636719	-51.452881
4963.403320	-51.128647
4974.169922	-50.635300
4984.936523	-50.004402
4995.703125	-49.892307
5006.469727	-49.478245
5017.236328	-49.643440
5028.002930	-50.016556
5038.769531	-50.752026
5049.536133	-51.330364
5060.302734	-52.336136
5071.069336	-53.235085
5081.835938	-53.881523
5092.602539	-54.758839
5103.369141	-55.285568
5114.135742	-56.056404
5124.902344	-56.810108
5135.668945	-57.309883
5146.435547	-58.125069
5157.202148	-58.783997
5167.968750	-59.058807
5178.735352	-59.672180
5189.501953	-60.412998
5200.268555	-61.033062
5211.035156	-61.979187
5221.801758	-63.003151
5232.568359	-64.002296
5243.334961	-64.974541
5254.101562	-66.226768
5264.868164	-67.583107
5275.634766	-69.168015
5286.401367	-71.153641
5297.167969	-73.294151
5307.934570	-75.425659
5318.701172	-78.179832
5329.467773	-80.951195
5340.234375	-84.003876
5351.000977	-87.547913
5361.767578	-90.950027
5372.534180	-95.122955
5383.300781	-99.285980
5394.067383	-103.812645
5404.833984	-109.620308
5415.600586	-115.397743
5426.367188	-121.334846
5437.133789	-128.429871
5447.900391	-135.430893
5458.666992	-141.105209
5469.433594	-143.785919
5480.200195	-144.871262
5490.966797	-145.411179
5501.733398	-145.701126
